# TOPAS Version: 4.0
# Parameter File: GBScanningNozzle.txt
# Results for scorer: DoseOnRTGrid
# Filtered by: OnlyIncludeParticlesNamed = 1 "proton"
# Scored in component: ScoringCylinder
# R in 1 bin  of 0.495 cm
# Phi in 1 bin  of 360 deg
# Z in 583 bins of 0.0600343 cm
# DoseToMedium ( Gy ) : Mean   
0, 0, 0, 0
0, 0, 1, 0
0, 0, 2, 0
0, 0, 3, 0
0, 0, 4, 0
0, 0, 5, 0
0, 0, 6, 0
0, 0, 7, 0
0, 0, 8, 0
0, 0, 9, 0
0, 0, 10, 0
0, 0, 11, 0
0, 0, 12, 0
0, 0, 13, 0
0, 0, 14, 0
0, 0, 15, 0
0, 0, 16, 0
0, 0, 17, 0
0, 0, 18, 0
0, 0, 19, 0
0, 0, 20, 0
0, 0, 21, 0
0, 0, 22, 0
0, 0, 23, 0
0, 0, 24, 0
0, 0, 25, 0
0, 0, 26, 0
0, 0, 27, 0
0, 0, 28, 0
0, 0, 29, 0
0, 0, 30, 0
0, 0, 31, 0
0, 0, 32, 0
0, 0, 33, 0
0, 0, 34, 0
0, 0, 35, 0
0, 0, 36, 0
0, 0, 37, 0
0, 0, 38, 0
0, 0, 39, 0
0, 0, 40, 0
0, 0, 41, 0
0, 0, 42, 0
0, 0, 43, 0
0, 0, 44, 0
0, 0, 45, 0
0, 0, 46, 0
0, 0, 47, 0
0, 0, 48, 0
0, 0, 49, 0
0, 0, 50, 0
0, 0, 51, 0
0, 0, 52, 0
0, 0, 53, 0
0, 0, 54, 0
0, 0, 55, 0
0, 0, 56, 0
0, 0, 57, 0
0, 0, 58, 0
0, 0, 59, 0
0, 0, 60, 0
0, 0, 61, 0
0, 0, 62, 0
0, 0, 63, 0
0, 0, 64, 0
0, 0, 65, 0
0, 0, 66, 0
0, 0, 67, 0
0, 0, 68, 0
0, 0, 69, 0
0, 0, 70, 0
0, 0, 71, 0
0, 0, 72, 0
0, 0, 73, 0
0, 0, 74, 0
0, 0, 75, 0
0, 0, 76, 0
0, 0, 77, 0
0, 0, 78, 0
0, 0, 79, 0
0, 0, 80, 0
0, 0, 81, 0
0, 0, 82, 0
0, 0, 83, 0
0, 0, 84, 0
0, 0, 85, 0
0, 0, 86, 0
0, 0, 87, 0
0, 0, 88, 0
0, 0, 89, 0
0, 0, 90, 0
0, 0, 91, 0
0, 0, 92, 0
0, 0, 93, 0
0, 0, 94, 0
0, 0, 95, 0
0, 0, 96, 0
0, 0, 97, 0
0, 0, 98, 0
0, 0, 99, 0
0, 0, 100, 0
0, 0, 101, 0
0, 0, 102, 0
0, 0, 103, 0
0, 0, 104, 0
0, 0, 105, 0
0, 0, 106, 0
0, 0, 107, 0
0, 0, 108, 0
0, 0, 109, 0
0, 0, 110, 0
0, 0, 111, 0
0, 0, 112, 0
0, 0, 113, 0
0, 0, 114, 0
0, 0, 115, 0
0, 0, 116, 0
0, 0, 117, 0
0, 0, 118, 0
0, 0, 119, 0
0, 0, 120, 0
0, 0, 121, 0
0, 0, 122, 0
0, 0, 123, 0
0, 0, 124, 0
0, 0, 125, 0
0, 0, 126, 0
0, 0, 127, 0
0, 0, 128, 0
0, 0, 129, 0
0, 0, 130, 0
0, 0, 131, 0
0, 0, 132, 0
0, 0, 133, 0
0, 0, 134, 0
0, 0, 135, 0
0, 0, 136, 0
0, 0, 137, 0
0, 0, 138, 0
0, 0, 139, 0
0, 0, 140, 0
0, 0, 141, 0
0, 0, 142, 0
0, 0, 143, 0
0, 0, 144, 0
0, 0, 145, 0
0, 0, 146, 0
0, 0, 147, 0
0, 0, 148, 0
0, 0, 149, 0
0, 0, 150, 0
0, 0, 151, 2.014397891590966e-09
0, 0, 152, 1.168581440128366e-09
0, 0, 153, 9.065529479946926e-10
0, 0, 154, 7.662633679827499e-10
0, 0, 155, 6.821496078608558e-10
0, 0, 156, 6.576553586995139e-10
0, 0, 157, 5.915042385739953e-10
0, 0, 158, 4.913637447293585e-10
0, 0, 159, 4.966016615301948e-10
0, 0, 160, 4.8287600204381e-10
0, 0, 161, 4.591701064981037e-10
0, 0, 162, 4.449625959963566e-10
0, 0, 163, 3.978626875271857e-10
0, 0, 164, 4.353776848129413e-10
0, 0, 165, 3.877111257089949e-10
0, 0, 166, 3.767624843339368e-10
0, 0, 167, 3.880183239759843e-10
0, 0, 168, 3.390013958217737e-10
0, 0, 169, 3.579276408602561e-10
0, 0, 170, 3.472663034836339e-10
0, 0, 171, 3.571430397008003e-10
0, 0, 172, 3.143062401008515e-10
0, 0, 173, 3.18166987706789e-10
0, 0, 174, 3.334413310712839e-10
0, 0, 175, 3.159999475896084e-10
0, 0, 176, 2.950566239792318e-10
0, 0, 177, 2.776221602236167e-10
0, 0, 178, 2.990350707279884e-10
0, 0, 179, 2.872228443210628e-10
0, 0, 180, 2.660106857412827e-10
0, 0, 181, 3.217057192602195e-10
0, 0, 182, 2.423647096135162e-10
0, 0, 183, 2.347742785710339e-10
0, 0, 184, 2.428417461791154e-10
0, 0, 185, 2.716201042413508e-10
0, 0, 186, 2.699254583259154e-10
0, 0, 187, 2.935469711794199e-10
0, 0, 188, 2.682314730299124e-10
0, 0, 189, 2.543425789364998e-10
0, 0, 190, 2.233423237488994e-10
0, 0, 191, 2.242637728831645e-10
0, 0, 192, 2.443903458876023e-10
0, 0, 193, 2.397379437468698e-10
0, 0, 194, 2.589667220153997e-10
0, 0, 195, 2.009922772173233e-10
0, 0, 196, 2.503757216949418e-10
0, 0, 197, 2.068402826422512e-10
0, 0, 198, 2.355761578250789e-10
0, 0, 199, 2.186128349801495e-10
0, 0, 200, 2.040648728271729e-10
0, 0, 201, 2.068703466551073e-10
0, 0, 202, 2.149185085408814e-10
0, 0, 203, 1.998618775748249e-10
0, 0, 204, 1.872635135700051e-10
0, 0, 205, 2.096532980076921e-10
0, 0, 206, 2.241185667289325e-10
0, 0, 207, 2.399799696876491e-10
0, 0, 208, 2.623933446714195e-10
0, 0, 209, 2.020989517752748e-10
0, 0, 210, 1.758933240123124e-10
0, 0, 211, 1.840440359821823e-10
0, 0, 212, 1.971751395430973e-10
0, 0, 213, 2.05102808386046e-10
0, 0, 214, 1.902696777191287e-10
0, 0, 215, 1.962440561816098e-10
0, 0, 216, 1.747396184901172e-10
0, 0, 217, 1.781257725728682e-10
0, 0, 218, 1.7976472887918e-10
0, 0, 219, 1.756139133307149e-10
0, 0, 220, 2.066917294173478e-10
0, 0, 221, 1.810249600862842e-10
0, 0, 222, 2.109139055863421e-10
0, 0, 223, 1.711053097365248e-10
0, 0, 224, 1.515971918565489e-10
0, 0, 225, 1.677839223558844e-10
0, 0, 226, 1.771523201633755e-10
0, 0, 227, 1.816927409519342e-10
0, 0, 228, 1.893949461423061e-10
0, 0, 229, 1.808206398156842e-10
0, 0, 230, 1.663689691266071e-10
0, 0, 231, 1.898980376587603e-10
0, 0, 232, 1.857738860921969e-10
0, 0, 233, 1.73838227199468e-10
0, 0, 234, 1.34694880134267e-10
0, 0, 235, 2.015593854472306e-10
0, 0, 236, 1.702013136716123e-10
0, 0, 237, 1.921746848896985e-10
0, 0, 238, 1.622885472600348e-10
0, 0, 239, 1.684986615787916e-10
0, 0, 240, 1.666523142751593e-10
0, 0, 241, 1.523507030981484e-10
0, 0, 242, 1.530733787636961e-10
0, 0, 243, 1.551622182394079e-10
0, 0, 244, 1.500225648910066e-10
0, 0, 245, 1.773954163840561e-10
0, 0, 246, 1.542788669994344e-10
0, 0, 247, 1.742146553761182e-10
0, 0, 248, 1.614316511405849e-10
0, 0, 249, 1.644873239441007e-10
0, 0, 250, 1.434327517661002e-10
0, 0, 251, 1.426659456120286e-10
0, 0, 252, 1.431575197903667e-10
0, 0, 253, 1.607035547449773e-10
0, 0, 254, 1.492537005316262e-10
0, 0, 255, 1.508239841038183e-10
0, 0, 256, 1.448958055424053e-10
0, 0, 257, 1.524845228449012e-10
0, 0, 258, 1.301470354603993e-10
0, 0, 259, 1.424837021691571e-10
0, 0, 260, 1.427273713022233e-10
0, 0, 261, 1.392421908555585e-10
0, 0, 262, 1.582079960404484e-10
0, 0, 263, 1.595378309775705e-10
0, 0, 264, 1.566282010775676e-10
0, 0, 265, 1.674809983184488e-10
0, 0, 266, 1.325733562019661e-10
0, 0, 267, 1.43116753100548e-10
0, 0, 268, 1.417225535131415e-10
0, 0, 269, 1.358857090754227e-10
0, 0, 270, 1.43025108863846e-10
0, 0, 271, 1.486039184416628e-10
0, 0, 272, 1.312332069704777e-10
0, 0, 273, 1.324933868861004e-10
0, 0, 274, 1.384532938443663e-10
0, 0, 275, 1.504551288473226e-10
0, 0, 276, 1.634344606905516e-10
0, 0, 277, 1.415651352848562e-10
0, 0, 278, 1.292620269889337e-10
0, 0, 279, 1.283623141369654e-10
0, 0, 280, 1.463177658491805e-10
0, 0, 281, 1.554532910050357e-10
0, 0, 282, 1.343422912472277e-10
0, 0, 283, 1.247539762649837e-10
0, 0, 284, 1.26339187811686e-10
0, 0, 285, 1.434285498229031e-10
0, 0, 286, 1.429534710579731e-10
0, 0, 287, 1.275133639394697e-10
0, 0, 288, 1.294781978399756e-10
0, 0, 289, 1.050144170602672e-10
0, 0, 290, 0
0, 0, 291, 0
0, 0, 292, 0
0, 0, 293, 0
0, 0, 294, 0
0, 0, 295, 0
0, 0, 296, 0
0, 0, 297, 0
0, 0, 298, 0
0, 0, 299, 0
0, 0, 300, 0
0, 0, 301, 0
0, 0, 302, 0
0, 0, 303, 0
0, 0, 304, 0
0, 0, 305, 0
0, 0, 306, 0
0, 0, 307, 0
0, 0, 308, 0
0, 0, 309, 0
0, 0, 310, 0
0, 0, 311, 0
0, 0, 312, 0
0, 0, 313, 0
0, 0, 314, 0
0, 0, 315, 0
0, 0, 316, 0
0, 0, 317, 0
0, 0, 318, 0
0, 0, 319, 0
0, 0, 320, 0
0, 0, 321, 0
0, 0, 322, 0
0, 0, 323, 0
0, 0, 324, 0
0, 0, 325, 0
0, 0, 326, 0
0, 0, 327, 0
0, 0, 328, 0
0, 0, 329, 0
0, 0, 330, 0
0, 0, 331, 0
0, 0, 332, 0
0, 0, 333, 0
0, 0, 334, 0
0, 0, 335, 0
0, 0, 336, 0
0, 0, 337, 0
0, 0, 338, 0
0, 0, 339, 0
0, 0, 340, 0
0, 0, 341, 0
0, 0, 342, 0
0, 0, 343, 0
0, 0, 344, 0
0, 0, 345, 0
0, 0, 346, 0
0, 0, 347, 0
0, 0, 348, 0
0, 0, 349, 0
0, 0, 350, 0
0, 0, 351, 0
0, 0, 352, 0
0, 0, 353, 0
0, 0, 354, 0
0, 0, 355, 0
0, 0, 356, 0
0, 0, 357, 0
0, 0, 358, 0
0, 0, 359, 0
0, 0, 360, 0
0, 0, 361, 0
0, 0, 362, 0
0, 0, 363, 0
0, 0, 364, 0
0, 0, 365, 0
0, 0, 366, 0
0, 0, 367, 0
0, 0, 368, 0
0, 0, 369, 0
0, 0, 370, 0
0, 0, 371, 0
0, 0, 372, 0
0, 0, 373, 0
0, 0, 374, 0
0, 0, 375, 0
0, 0, 376, 0
0, 0, 377, 0
0, 0, 378, 0
0, 0, 379, 0
0, 0, 380, 0
0, 0, 381, 0
0, 0, 382, 0
0, 0, 383, 0
0, 0, 384, 0
0, 0, 385, 0
0, 0, 386, 0
0, 0, 387, 0
0, 0, 388, 0
0, 0, 389, 0
0, 0, 390, 0
0, 0, 391, 0
0, 0, 392, 0
0, 0, 393, 0
0, 0, 394, 0
0, 0, 395, 0
0, 0, 396, 0
0, 0, 397, 0
0, 0, 398, 0
0, 0, 399, 0
0, 0, 400, 0
0, 0, 401, 0
0, 0, 402, 0
0, 0, 403, 0
0, 0, 404, 0
0, 0, 405, 0
0, 0, 406, 0
0, 0, 407, 0
0, 0, 408, 0
0, 0, 409, 0
0, 0, 410, 0
0, 0, 411, 0
0, 0, 412, 0
0, 0, 413, 0
0, 0, 414, 0
0, 0, 415, 0
0, 0, 416, 0
0, 0, 417, 0
0, 0, 418, 0
0, 0, 419, 0
0, 0, 420, 0
0, 0, 421, 0
0, 0, 422, 0
0, 0, 423, 0
0, 0, 424, 0
0, 0, 425, 0
0, 0, 426, 0
0, 0, 427, 0
0, 0, 428, 0
0, 0, 429, 8.807516050697823e-10
0, 0, 430, 2.217423757203264e-09
0, 0, 431, 0
0, 0, 432, 0
0, 0, 433, 0
0, 0, 434, 0
0, 0, 435, 0
0, 0, 436, 0
0, 0, 437, 0
0, 0, 438, 0
0, 0, 439, 0
0, 0, 440, 0
0, 0, 441, 0
0, 0, 442, 0
0, 0, 443, 0
0, 0, 444, 0
0, 0, 445, 0
0, 0, 446, 0
0, 0, 447, 0
0, 0, 448, 0
0, 0, 449, 0
0, 0, 450, 0
0, 0, 451, 0
0, 0, 452, 0
0, 0, 453, 0
0, 0, 454, 0
0, 0, 455, 0
0, 0, 456, 0
0, 0, 457, 0
0, 0, 458, 0
0, 0, 459, 0
0, 0, 460, 0
0, 0, 461, 0
0, 0, 462, 0
0, 0, 463, 0
0, 0, 464, 0
0, 0, 465, 0
0, 0, 466, 0
0, 0, 467, 0
0, 0, 468, 0
0, 0, 469, 0
0, 0, 470, 0
0, 0, 471, 0
0, 0, 472, 0
0, 0, 473, 0
0, 0, 474, 0
0, 0, 475, 0
0, 0, 476, 0
0, 0, 477, 0
0, 0, 478, 0
0, 0, 479, 0
0, 0, 480, 0
0, 0, 481, 0
0, 0, 482, 0
0, 0, 483, 0
0, 0, 484, 0
0, 0, 485, 0
0, 0, 486, 0
0, 0, 487, 0
0, 0, 488, 0
0, 0, 489, 0
0, 0, 490, 0
0, 0, 491, 0
0, 0, 492, 0
0, 0, 493, 0
0, 0, 494, 0
0, 0, 495, 0
0, 0, 496, 0
0, 0, 497, 0
0, 0, 498, 0
0, 0, 499, 0
0, 0, 500, 0
0, 0, 501, 0
0, 0, 502, 0
0, 0, 503, 0
0, 0, 504, 0
0, 0, 505, 0
0, 0, 506, 0
0, 0, 507, 0
0, 0, 508, 0
0, 0, 509, 0
0, 0, 510, 0
0, 0, 511, 0
0, 0, 512, 0
0, 0, 513, 0
0, 0, 514, 0
0, 0, 515, 0
0, 0, 516, 0
0, 0, 517, 0
0, 0, 518, 0
0, 0, 519, 0
0, 0, 520, 0
0, 0, 521, 0
0, 0, 522, 0
0, 0, 523, 0
0, 0, 524, 0
0, 0, 525, 0
0, 0, 526, 0
0, 0, 527, 0
0, 0, 528, 0
0, 0, 529, 0
0, 0, 530, 0
0, 0, 531, 0
0, 0, 532, 0
0, 0, 533, 0
0, 0, 534, 0
0, 0, 535, 0
0, 0, 536, 0
0, 0, 537, 0
0, 0, 538, 0
0, 0, 539, 0
0, 0, 540, 0
0, 0, 541, 0
0, 0, 542, 0
0, 0, 543, 0
0, 0, 544, 0
0, 0, 545, 0
0, 0, 546, 0
0, 0, 547, 0
0, 0, 548, 0
0, 0, 549, 0
0, 0, 550, 0
0, 0, 551, 0
0, 0, 552, 0
0, 0, 553, 0
0, 0, 554, 0
0, 0, 555, 0
0, 0, 556, 0
0, 0, 557, 0
0, 0, 558, 0
0, 0, 559, 0
0, 0, 560, 0
0, 0, 561, 0
0, 0, 562, 0
0, 0, 563, 0
0, 0, 564, 0
0, 0, 565, 0
0, 0, 566, 0
0, 0, 567, 0
0, 0, 568, 0
0, 0, 569, 0
0, 0, 570, 0
0, 0, 571, 0
0, 0, 572, 0
0, 0, 573, 0
0, 0, 574, 0
0, 0, 575, 0
0, 0, 576, 0
0, 0, 577, 0
0, 0, 578, 0
0, 0, 579, 0
0, 0, 580, 0
0, 0, 581, 0
0, 0, 582, 0
