# TOPAS Version: 4.0
# Parameter File: GBScanningNozzle.txt
# Results for scorer: DoseOnRTGrid
# Filtered by: OnlyIncludeParticlesNamed = 1 "proton"
# Scored in component: ScoringCylinder
# R in 1 bin  of 0.495 cm
# Phi in 1 bin  of 360 deg
# Z in 583 bins of 0.0600343 cm
# DoseToMedium ( Gy ) : Mean   
LX,LY,LZ,DoseToWater (Gy)
0, 0, 0, 0
0, 0, 1, 0
0, 0, 2, 0
0, 0, 3, 0
0, 0, 4, 0
0, 0, 5, 0
0, 0, 6, 0
0, 0, 7, 0
0, 0, 8, 0
0, 0, 9, 0
0, 0, 10, 0
0, 0, 11, 0
0, 0, 12, 0
0, 0, 13, 0
0, 0, 14, 0
0, 0, 15, 0
0, 0, 16, 0
0, 0, 17, 0
0, 0, 18, 0
0, 0, 19, 0
0, 0, 20, 0
0, 0, 21, 0
0, 0, 22, 0
0, 0, 23, 0
0, 0, 24, 0
0, 0, 25, 0
0, 0, 26, 0
0, 0, 27, 0
0, 0, 28, 0
0, 0, 29, 0
0, 0, 30, 0
0, 0, 31, 0
0, 0, 32, 0
0, 0, 33, 0
0, 0, 34, 0
0, 0, 35, 0
0, 0, 36, 0
0, 0, 37, 0
0, 0, 38, 0
0, 0, 39, 0
0, 0, 40, 0
0, 0, 41, 0
0, 0, 42, 0
0, 0, 43, 0
0, 0, 44, 0
0, 0, 45, 0
0, 0, 46, 0
0, 0, 47, 0
0, 0, 48, 0
0, 0, 49, 0
0, 0, 50, 0
0, 0, 51, 0
0, 0, 52, 0
0, 0, 53, 0
0, 0, 54, 0
0, 0, 55, 0
0, 0, 56, 0
0, 0, 57, 0
0, 0, 58, 0
0, 0, 59, 0
0, 0, 60, 0
0, 0, 61, 0
0, 0, 62, 0
0, 0, 63, 0
0, 0, 64, 0
0, 0, 65, 0
0, 0, 66, 0
0, 0, 67, 0
0, 0, 68, 0
0, 0, 69, 0
0, 0, 70, 0
0, 0, 71, 0
0, 0, 72, 0
0, 0, 73, 0
0, 0, 74, 0
0, 0, 75, 0
0, 0, 76, 0
0, 0, 77, 0
0, 0, 78, 0
0, 0, 79, 0
0, 0, 80, 0
0, 0, 81, 0
0, 0, 82, 0
0, 0, 83, 0
0, 0, 84, 0
0, 0, 85, 0
0, 0, 86, 0
0, 0, 87, 0
0, 0, 88, 0
0, 0, 89, 0
0, 0, 90, 0
0, 0, 91, 0
0, 0, 92, 0
0, 0, 93, 0
0, 0, 94, 0
0, 0, 95, 0
0, 0, 96, 0
0, 0, 97, 0
0, 0, 98, 0
0, 0, 99, 0
0, 0, 100, 0
0, 0, 101, 0
0, 0, 102, 0
0, 0, 103, 0
0, 0, 104, 0
0, 0, 105, 0
0, 0, 106, 0
0, 0, 107, 0
0, 0, 108, 0
0, 0, 109, 0
0, 0, 110, 0
0, 0, 111, 0
0, 0, 112, 0
0, 0, 113, 0
0, 0, 114, 0
0, 0, 115, 0
0, 0, 116, 0
0, 0, 117, 0
0, 0, 118, 0
0, 0, 119, 0
0, 0, 120, 0
0, 0, 121, 0
0, 0, 122, 0
0, 0, 123, 0
0, 0, 124, 0
0, 0, 125, 0
0, 0, 126, 0
0, 0, 127, 0
0, 0, 128, 0
0, 0, 129, 4.102667840966974e-12
0, 0, 130, 9.140924123934439e-12
0, 0, 131, 1.556804622621135e-11
0, 0, 132, 2.17455658372969e-11
0, 0, 133, 1.731152302692105e-11
0, 0, 134, 1.696475550113659e-11
0, 0, 135, 1.67208438329251e-11
0, 0, 136, 2.232921960601511e-11
0, 0, 137, 2.451917694070753e-11
0, 0, 138, 2.421626794352431e-11
0, 0, 139, 2.49420734139461e-11
0, 0, 140, 3.590791773198329e-11
0, 0, 141, 3.921021744711046e-11
0, 0, 142, 3.974858244160439e-11
0, 0, 143, 4.119469725292044e-11
0, 0, 144, 5.456977123399755e-11
0, 0, 145, 6.147721573648934e-11
0, 0, 146, 6.27040686035821e-11
0, 0, 147, 5.81060426622829e-11
0, 0, 148, 6.589189504860498e-11
0, 0, 149, 7.151458723847499e-11
0, 0, 150, 6.964842124643917e-11
0, 0, 151, 7.580352183772498e-11
0, 0, 152, 9.049965051545259e-11
0, 0, 153, 9.303324531908702e-11
0, 0, 154, 1.095899133782757e-10
0, 0, 155, 9.728453419503909e-11
0, 0, 156, 9.283286613928607e-11
0, 0, 157, 9.083497936557151e-11
0, 0, 158, 1.065095134532828e-10
0, 0, 159, 1.187283415166019e-10
0, 0, 160, 1.212871956179984e-10
0, 0, 161, 1.204507312314194e-10
0, 0, 162, 1.256383169223304e-10
0, 0, 163, 1.201618735454839e-10
0, 0, 164, 1.327563578236744e-10
0, 0, 165, 1.246408231970149e-10
0, 0, 166, 1.19052185337626e-10
0, 0, 167, 1.180449933181387e-10
0, 0, 168, 1.182008501704328e-10
0, 0, 169, 1.166671858108799e-10
0, 0, 170, 1.141030166549595e-10
0, 0, 171, 1.04821947963483e-10
0, 0, 172, 1.037411065117655e-10
0, 0, 173, 9.947447049293227e-11
0, 0, 174, 9.840588343009869e-11
0, 0, 175, 1.067928700466292e-10
0, 0, 176, 1.083724536020567e-10
0, 0, 177, 9.955993106908116e-11
0, 0, 178, 1.015236579335303e-10
0, 0, 179, 9.725907327856349e-11
0, 0, 180, 9.321326748967259e-11
0, 0, 181, 9.836509868411013e-11
0, 0, 182, 9.248245247756774e-11
0, 0, 183, 9.008578439687108e-11
0, 0, 184, 8.9317158439802e-11
0, 0, 185, 8.813537269185005e-11
0, 0, 186, 8.654547557443646e-11
0, 0, 187, 9.003027271962486e-11
0, 0, 188, 9.188255432215987e-11
0, 0, 189, 8.895162988574927e-11
0, 0, 190, 9.160847898824358e-11
0, 0, 191, 8.971070580721532e-11
0, 0, 192, 8.828475650749985e-11
0, 0, 193, 8.598351818731241e-11
0, 0, 194, 8.848306655009141e-11
0, 0, 195, 8.783616758737962e-11
0, 0, 196, 8.811467578289389e-11
0, 0, 197, 9.391313233813026e-11
0, 0, 198, 8.780875116030848e-11
0, 0, 199, 8.759389393672512e-11
0, 0, 200, 8.777438228318741e-11
0, 0, 201, 8.161939636255064e-11
0, 0, 202, 8.015704727316518e-11
0, 0, 203, 7.938417205984467e-11
0, 0, 204, 7.863165783500004e-11
0, 0, 205, 7.876642491725025e-11
0, 0, 206, 7.690606938169015e-11
0, 0, 207, 7.48618520825148e-11
0, 0, 208, 7.567477880409867e-11
0, 0, 209, 8.176994383381856e-11
0, 0, 210, 7.179964495796941e-11
0, 0, 211, 7.085999652459131e-11
0, 0, 212, 7.023254471396654e-11
0, 0, 213, 6.898335677836001e-11
0, 0, 214, 7.197323628332383e-11
0, 0, 215, 6.833197026679997e-11
0, 0, 216, 6.798754780394002e-11
0, 0, 217, 6.723937247628089e-11
0, 0, 218, 6.73400076060075e-11
0, 0, 219, 6.582399784693486e-11
0, 0, 220, 6.486079048942902e-11
0, 0, 221, 6.469953440613168e-11
0, 0, 222, 6.527762198531816e-11
0, 0, 223, 6.498920195552624e-11
0, 0, 224, 6.41666823710435e-11
0, 0, 225, 6.41082528284732e-11
0, 0, 226, 6.697658738769141e-11
0, 0, 227, 6.659045904136991e-11
0, 0, 228, 6.487723851509966e-11
0, 0, 229, 6.436149127935803e-11
0, 0, 230, 6.339036595270608e-11
0, 0, 231, 6.257812295858423e-11
0, 0, 232, 6.138075207146954e-11
0, 0, 233, 6.102432018679173e-11
0, 0, 234, 5.993213895094803e-11
0, 0, 235, 6.066220246270288e-11
0, 0, 236, 6.011203534321662e-11
0, 0, 237, 5.872279492904726e-11
0, 0, 238, 5.932206794139535e-11
0, 0, 239, 5.933763432365726e-11
0, 0, 240, 6.108880141853875e-11
0, 0, 241, 6.145501746862757e-11
0, 0, 242, 6.005700606413676e-11
0, 0, 243, 6.00181350310341e-11
0, 0, 244, 6.045643164655047e-11
0, 0, 245, 5.772768424895989e-11
0, 0, 246, 5.796912335733904e-11
0, 0, 247, 6.085161616050519e-11
0, 0, 248, 6.354010226835585e-11
0, 0, 249, 5.87318201320597e-11
0, 0, 250, 6.401341703269974e-11
0, 0, 251, 6.156146495770999e-11
0, 0, 252, 5.905628239518353e-11
0, 0, 253, 5.765593751321521e-11
0, 0, 254, 5.781455920331383e-11
0, 0, 255, 6.045207728201689e-11
0, 0, 256, 6.234632208508155e-11
0, 0, 257, 5.711802116940817e-11
0, 0, 258, 5.59158039507181e-11
0, 0, 259, 5.683362107831196e-11
0, 0, 260, 5.705780168447463e-11
0, 0, 261, 5.573886405208015e-11
0, 0, 262, 5.550220833891253e-11
0, 0, 263, 5.597334386194731e-11
0, 0, 264, 5.538678204814978e-11
0, 0, 265, 5.968503808290016e-11
0, 0, 266, 5.48244403218453e-11
0, 0, 267, 5.45119872298706e-11
0, 0, 268, 5.485988368373161e-11
0, 0, 269, 5.475806371532959e-11
0, 0, 270, 5.296710856815654e-11
0, 0, 271, 5.330634638474062e-11
0, 0, 272, 5.231545990539149e-11
0, 0, 273, 5.254122838406155e-11
0, 0, 274, 5.241919623591e-11
0, 0, 275, 5.289107316886931e-11
0, 0, 276, 5.260818497169547e-11
0, 0, 277, 5.240093241080651e-11
0, 0, 278, 5.200419926967927e-11
0, 0, 279, 5.09419529849133e-11
0, 0, 280, 5.189982229599727e-11
0, 0, 281, 5.120273616441882e-11
0, 0, 282, 5.155987562495905e-11
0, 0, 283, 6.049809937974116e-11
0, 0, 284, 5.363025042455781e-11
0, 0, 285, 5.313623380388765e-11
0, 0, 286, 5.286922252636979e-11
0, 0, 287, 5.200502720658935e-11
0, 0, 288, 5.714500123112316e-11
0, 0, 289, 5.584491013707169e-11
0, 0, 290, 5.340654302423498e-11
0, 0, 291, 5.251832005208605e-11
0, 0, 292, 5.259679434615209e-11
0, 0, 293, 5.30093845319015e-11
0, 0, 294, 5.177636009052555e-11
0, 0, 295, 5.268237990382565e-11
0, 0, 296, 5.264837774603101e-11
0, 0, 297, 5.487235864704465e-11
0, 0, 298, 5.469388440652326e-11
0, 0, 299, 5.716817423883163e-11
0, 0, 300, 5.589559464664106e-11
0, 0, 301, 5.755808258051065e-11
0, 0, 302, 5.453654304597438e-11
0, 0, 303, 5.541131824391477e-11
0, 0, 304, 5.554110786270343e-11
0, 0, 305, 5.340157134647808e-11
0, 0, 306, 5.305480058070281e-11
0, 0, 307, 5.576325090000129e-11
0, 0, 308, 5.550052038498558e-11
0, 0, 309, 5.54974082746324e-11
0, 0, 310, 5.426247826137471e-11
0, 0, 311, 5.18850476388489e-11
0, 0, 312, 5.12548462134768e-11
0, 0, 313, 5.04087612724243e-11
0, 0, 314, 5.059027037225911e-11
0, 0, 315, 5.049691784099582e-11
0, 0, 316, 5.08497355671261e-11
0, 0, 317, 5.164469007693372e-11
0, 0, 318, 5.349758149098801e-11
0, 0, 319, 5.166908580312078e-11
0, 0, 320, 5.247761599792838e-11
0, 0, 321, 5.599604650653194e-11
0, 0, 322, 5.398474183762941e-11
0, 0, 323, 5.425034175965987e-11
0, 0, 324, 5.279003382123542e-11
0, 0, 325, 5.293958390328879e-11
0, 0, 326, 5.220378411924318e-11
0, 0, 327, 5.387126947016533e-11
0, 0, 328, 5.146227574600514e-11
0, 0, 329, 5.097341977299201e-11
0, 0, 330, 4.909403189118706e-11
0, 0, 331, 4.902516912964128e-11
0, 0, 332, 4.871735985326325e-11
0, 0, 333, 4.918825288045377e-11
0, 0, 334, 4.932142825761886e-11
0, 0, 335, 4.885928374313822e-11
0, 0, 336, 4.866387836376473e-11
0, 0, 337, 4.897744038087543e-11
0, 0, 338, 4.872785312791157e-11
0, 0, 339, 4.906205330095233e-11
0, 0, 340, 4.898871424890299e-11
0, 0, 341, 4.879876164290116e-11
0, 0, 342, 4.838857553555087e-11
0, 0, 343, 4.801848265103875e-11
0, 0, 344, 4.771082542725961e-11
0, 0, 345, 4.75330098501615e-11
0, 0, 346, 4.816951889418207e-11
0, 0, 347, 4.822922563297993e-11
0, 0, 348, 4.826574170003495e-11
0, 0, 349, 4.864430537386152e-11
0, 0, 350, 4.839295975898731e-11
0, 0, 351, 5.462319468225001e-11
0, 0, 352, 5.256706132555732e-11
0, 0, 353, 5.249698960092957e-11
0, 0, 354, 4.975914835295728e-11
0, 0, 355, 4.954567750043917e-11
0, 0, 356, 5.001855929679299e-11
0, 0, 357, 4.9642432507027e-11
0, 0, 358, 4.879076449344291e-11
0, 0, 359, 4.9762025923262e-11
0, 0, 360, 5.43556992611052e-11
0, 0, 361, 5.631335477907127e-11
0, 0, 362, 5.251861856947919e-11
0, 0, 363, 5.620707804983068e-11
0, 0, 364, 5.749181055789022e-11
0, 0, 365, 5.338658458213576e-11
0, 0, 366, 5.88051119334808e-11
0, 0, 367, 5.492799899851626e-11
0, 0, 368, 5.528650328025944e-11
0, 0, 369, 5.318881463779216e-11
0, 0, 370, 5.180527957396526e-11
0, 0, 371, 5.285873354827885e-11
0, 0, 372, 5.213329640153654e-11
0, 0, 373, 5.202890574350455e-11
0, 0, 374, 5.110903056308625e-11
0, 0, 375, 5.01601463757764e-11
0, 0, 376, 5.686590507699228e-11
0, 0, 377, 5.475336446475617e-11
0, 0, 378, 5.401559038574534e-11
0, 0, 379, 5.354612936809052e-11
0, 0, 380, 5.384385185678325e-11
0, 0, 381, 5.388129942708499e-11
0, 0, 382, 5.136181924255767e-11
0, 0, 383, 5.295975066524431e-11
0, 0, 384, 5.124624268293635e-11
0, 0, 385, 5.081407112851916e-11
0, 0, 386, 4.971166155042868e-11
0, 0, 387, 4.971099935008048e-11
0, 0, 388, 4.871611493575087e-11
0, 0, 389, 4.912353983516107e-11
0, 0, 390, 4.875415272855507e-11
0, 0, 391, 4.991821668322281e-11
0, 0, 392, 5.141021621279245e-11
0, 0, 393, 5.01811855024377e-11
0, 0, 394, 5.026911945886434e-11
0, 0, 395, 4.959453669989939e-11
0, 0, 396, 4.891723663111519e-11
0, 0, 397, 4.851890474689224e-11
0, 0, 398, 4.825429357478814e-11
0, 0, 399, 4.850282482659861e-11
0, 0, 400, 4.835032072504723e-11
0, 0, 401, 4.992574054180227e-11
0, 0, 402, 5.09987382097351e-11
0, 0, 403, 4.824517389574961e-11
0, 0, 404, 4.872667323000968e-11
0, 0, 405, 4.906124577105911e-11
0, 0, 406, 4.9582765424765e-11
0, 0, 407, 5.211848281407126e-11
0, 0, 408, 5.352383240509937e-11
0, 0, 409, 5.179422791569833e-11
0, 0, 410, 4.76479632137748e-11
0, 0, 411, 4.781073947256093e-11
0, 0, 412, 4.7673764783592e-11
0, 0, 413, 4.73522064265878e-11
0, 0, 414, 4.768863774911318e-11
0, 0, 415, 4.772372267564094e-11
0, 0, 416, 4.827084861082981e-11
0, 0, 417, 4.828247996214617e-11
0, 0, 418, 4.846675528517045e-11
0, 0, 419, 4.879718546902135e-11
0, 0, 420, 5.625354625096004e-11
0, 0, 421, 4.87962933458288e-11
0, 0, 422, 5.247098758335567e-11
0, 0, 423, 4.939916813801832e-11
0, 0, 424, 4.838227913748444e-11
0, 0, 425, 4.866256331725306e-11
0, 0, 426, 4.813352158032973e-11
0, 0, 427, 4.861818914113098e-11
0, 0, 428, 5.197213931745649e-11
0, 0, 429, 5.0795476575029e-11
0, 0, 430, 4.93267093190302e-11
0, 0, 431, 4.957252202860414e-11
0, 0, 432, 5.54590668993405e-11
0, 0, 433, 5.082607453728562e-11
0, 0, 434, 4.910526768488948e-11
0, 0, 435, 4.874025301753093e-11
0, 0, 436, 5.157268631772345e-11
0, 0, 437, 5.030936564116222e-11
0, 0, 438, 5.114831964927523e-11
0, 0, 439, 5.132657998686676e-11
0, 0, 440, 4.913637121143109e-11
0, 0, 441, 4.899650156992847e-11
0, 0, 442, 4.945644522103992e-11
0, 0, 443, 5.193302957565628e-11
0, 0, 444, 4.996221495325957e-11
0, 0, 445, 5.013730174285126e-11
0, 0, 446, 5.107756730315344e-11
0, 0, 447, 5.264724694695847e-11
0, 0, 448, 5.064930989796841e-11
0, 0, 449, 5.334482231405366e-11
0, 0, 450, 5.188356109148634e-11
0, 0, 451, 4.780268996578408e-11
0, 0, 452, 4.846607372752378e-11
0, 0, 453, 4.792174005786221e-11
0, 0, 454, 5.027016403099573e-11
0, 0, 455, 5.559366352568047e-11
0, 0, 456, 5.963593688990504e-11
0, 0, 457, 5.348886212506437e-11
0, 0, 458, 4.786582956826086e-11
0, 0, 459, 4.786959113765873e-11
0, 0, 460, 4.81870676119444e-11
0, 0, 461, 4.89219798479078e-11
0, 0, 462, 4.672604574807273e-11
0, 0, 463, 4.723664569874487e-11
0, 0, 464, 5.303532831260416e-11
0, 0, 465, 5.335177182939777e-11
0, 0, 466, 5.22661641120343e-11
0, 0, 467, 5.26407301466081e-11
0, 0, 468, 4.944077444584497e-11
0, 0, 469, 4.829595788767927e-11
0, 0, 470, 4.836071850108773e-11
0, 0, 471, 5.19701295708787e-11
0, 0, 472, 5.084359492906965e-11
0, 0, 473, 4.960717410265095e-11
0, 0, 474, 4.860328750738086e-11
0, 0, 475, 4.751524150938368e-11
0, 0, 476, 4.703156301738199e-11
0, 0, 477, 4.746480769161907e-11
0, 0, 478, 4.686442477252554e-11
0, 0, 479, 4.731499056517795e-11
0, 0, 480, 4.810478430132182e-11
0, 0, 481, 4.872881343175708e-11
0, 0, 482, 4.767771621586003e-11
0, 0, 483, 4.658218000520659e-11
0, 0, 484, 4.676335332026191e-11
0, 0, 485, 4.54961651394294e-11
0, 0, 486, 4.617614115458581e-11
0, 0, 487, 4.571116704109988e-11
0, 0, 488, 4.550332108886819e-11
0, 0, 489, 4.578834275175328e-11
0, 0, 490, 4.664021623266381e-11
0, 0, 491, 4.65173491351257e-11
0, 0, 492, 4.816494257307351e-11
0, 0, 493, 5.290598556081085e-11
0, 0, 494, 4.678264775129786e-11
0, 0, 495, 4.575577038159637e-11
0, 0, 496, 4.555792445320532e-11
0, 0, 497, 4.547506402769952e-11
0, 0, 498, 4.569044086819103e-11
0, 0, 499, 4.51503494278305e-11
0, 0, 500, 4.516940202049466e-11
0, 0, 501, 4.479285623154898e-11
0, 0, 502, 4.608940732407601e-11
0, 0, 503, 4.531125261516071e-11
0, 0, 504, 4.552252645799201e-11
0, 0, 505, 4.561567074284385e-11
0, 0, 506, 4.612295528723983e-11
0, 0, 507, 4.578108941102632e-11
0, 0, 508, 4.529275033804147e-11
0, 0, 509, 4.877028853812921e-11
0, 0, 510, 6.027153860607064e-11
0, 0, 511, 4.653516155175547e-11
0, 0, 512, 5.485838020606602e-11
0, 0, 513, 4.476325412233912e-11
0, 0, 514, 4.423362229814143e-11
0, 0, 515, 5.567995383355835e-11
0, 0, 516, 5.274072706482559e-11
0, 0, 517, 4.470688419689826e-11
0, 0, 518, 4.469380857006811e-11
0, 0, 519, 4.437457714044841e-11
0, 0, 520, 4.357570608529303e-11
0, 0, 521, 4.459015168164337e-11
0, 0, 522, 4.386507737864653e-11
0, 0, 523, 4.421622958483744e-11
0, 0, 524, 4.403800260168292e-11
0, 0, 525, 4.904752463357695e-11
0, 0, 526, 5.04180139888871e-11
0, 0, 527, 4.826032144607016e-11
0, 0, 528, 4.878254618939883e-11
0, 0, 529, 4.790359364468876e-11
0, 0, 530, 6.1597836696934e-11
0, 0, 531, 4.50409565277384e-11
0, 0, 532, 4.576659987617844e-11
0, 0, 533, 4.574709198241059e-11
0, 0, 534, 4.574765959992324e-11
0, 0, 535, 4.564567769073613e-11
0, 0, 536, 4.551688653739263e-11
0, 0, 537, 4.560417320331514e-11
0, 0, 538, 4.593953323537232e-11
0, 0, 539, 4.582942507261039e-11
0, 0, 540, 4.552749525400758e-11
0, 0, 541, 4.555749870085184e-11
0, 0, 542, 4.576822653445165e-11
0, 0, 543, 4.53289314632172e-11
0, 0, 544, 4.466726748339143e-11
0, 0, 545, 4.513257328207045e-11
0, 0, 546, 4.475412743242905e-11
0, 0, 547, 4.402896633107958e-11
0, 0, 548, 4.374971422084929e-11
0, 0, 549, 4.392896764361868e-11
0, 0, 550, 4.324933360259258e-11
0, 0, 551, 4.301194802076984e-11
0, 0, 552, 4.351697896757043e-11
0, 0, 553, 4.404682135095554e-11
0, 0, 554, 4.373686969055907e-11
0, 0, 555, 4.32856770971185e-11
0, 0, 556, 4.370972676224142e-11
0, 0, 557, 4.349381647836092e-11
0, 0, 558, 4.35943435994553e-11
0, 0, 559, 4.387861418972398e-11
0, 0, 560, 4.372059343821526e-11
0, 0, 561, 5.444634199085713e-11
0, 0, 562, 4.747420709993929e-11
0, 0, 563, 4.344541035234097e-11
0, 0, 564, 4.295560466463662e-11
0, 0, 565, 4.65300570387254e-11
0, 0, 566, 4.767684695006943e-11
0, 0, 567, 5.025987389819699e-11
0, 0, 568, 4.33750459711762e-11
0, 0, 569, 4.32276778900091e-11
0, 0, 570, 4.478417521432962e-11
0, 0, 571, 5.036291730177331e-11
0, 0, 572, 4.924403786226078e-11
0, 0, 573, 4.817541608214536e-11
0, 0, 574, 4.77523921621339e-11
0, 0, 575, 4.474512674165574e-11
0, 0, 576, 4.361641468391495e-11
0, 0, 577, 4.390846973832439e-11
0, 0, 578, 5.08064209421307e-11
0, 0, 579, 4.344203417425926e-11
0, 0, 580, 4.363716970476207e-11
0, 0, 581, 4.319563336257437e-11
0, 0, 582, 4.253479485413187e-11
